Czas (s),Temperatura w osi (C),Temperatura na powierzchni (C),Roznica dT (C)
0.0000,100.0000,100.0000,0.0000
4.8309,100.0227,216.6084,116.5857
9.6618,100.1481,271.4707,171.3226
14.4928,100.5274,311.0247,210.4972
19.3237,101.3629,342.9980,241.6351
24.1546,102.8679,370.2771,267.4092
28.9855,105.2288,394.3004,289.0716
33.8164,108.5805,415.9047,307.3241
38.6473,112.9983,435.6265,322.6282
43.4783,118.5010,453.8340,335.3330
48.3092,125.0622,470.7926,345.7304
53.1401,132.6221,486.7010,354.0790
57.9710,141.0992,501.7127,360.6135
62.8019,150.4003,515.9489,365.5486
67.6329,160.4278,529.5072,369.0795
72.4638,171.0846,542.4678,371.3832
77.2947,182.2780,554.8971,372.6191
82.1256,193.9214,566.8508,372.9294
86.9565,205.9355,578.3761,372.4406
91.7874,218.2488,589.5133,371.2645
96.6184,230.7972,600.2969,369.4997
101.4493,243.5241,610.7568,367.2327
106.2802,256.3797,620.9189,364.5392
111.1111,269.3204,630.8057,361.4853
115.9420,282.3083,640.4370,358.1287
120.7729,295.3105,649.8300,354.5195
125.6039,308.2985,659.0000,350.7014
130.4348,321.2480,667.9603,346.7123
135.2657,334.1381,676.7229,342.5848
140.0966,346.9509,685.2983,338.3474
144.9275,359.6712,693.6959,334.0246
149.7585,372.2864,701.9241,329.6377
154.5894,384.7855,709.9905,325.2050
159.4203,397.1596,717.9017,320.7421
164.2512,409.4013,725.6640,316.2627
169.0821,421.5045,733.2828,311.7783
173.9130,433.4642,740.7632,307.2989
178.7440,445.2766,748.1097,302.8331
183.5749,456.9385,755.3265,298.3880
188.4058,468.4477,762.4175,293.9699
193.2367,479.8024,769.3863,289.5839
198.0676,491.0016,776.2361,285.2345
202.8986,502.0447,782.9701,280.9254
207.7295,512.9314,789.5910,276.6595
212.5604,523.6620,796.1015,272.4396
217.3913,534.2367,802.5042,268.2675
222.2222,544.6564,808.8015,264.1451
227.0531,554.9219,814.9956,260.0736
231.8841,565.0344,821.0886,256.0542
236.7150,574.9951,827.0825,252.0874
241.5459,584.8054,832.9794,248.1740
246.3768,594.4668,838.7811,244.3143
251.2077,603.9809,844.4894,240.5085
256.0386,613.3494,850.1060,236.7566
260.8696,622.5739,855.6325,233.0586
265.7005,631.6563,861.0707,229.4143
270.5314,640.5984,866.4219,225.8235
275.3623,649.4020,871.6879,222.2859
280.1932,658.0689,876.8700,218.8010
285.0242,666.6011,881.9696,215.3685
289.8551,675.0004,886.9883,211.9879
294.6860,683.2687,891.9272,208.6585
299.5169,691.4078,896.7878,205.3800
304.3478,699.4197,901.5713,202.1516
309.1787,707.3062,906.2791,198.9729
314.0097,715.0691,910.9123,195.8431
318.8406,722.7104,915.4722,192.7618
323.6715,730.2318,919.9599,189.7281
328.5024,737.6352,924.3767,186.7416
333.3333,744.9222,928.7237,183.8014
338.1643,752.0948,933.0020,180.9071
342.9952,759.1547,937.2126,178.0580
347.8261,766.1035,941.3568,175.2533
352.6570,772.9430,945.4355,172.4925
357.4879,779.6750,949.4499,169.7749
362.3188,786.3009,953.4008,167.0999
367.1498,792.8226,957.2894,164.4668
371.9807,799.2416,961.1167,161.8750
376.8116,805.5596,964.8835,159.3239
381.6425,811.7780,968.5909,156.8129
386.4734,817.8985,972.2398,154.3413
391.3043,823.9225,975.8312,151.9086
396.1353,829.8517,979.3658,149.5142
400.9662,835.6874,982.8448,147.1573
405.7971,841.4312,986.2688,144.8376
410.6280,847.0845,989.6389,142.5544
415.4589,852.6486,992.9558,140.3071
420.2899,858.1251,996.2204,138.0952
425.1208,863.5153,999.4335,135.9182
429.9517,868.8205,1002.5959,133.7754
434.7826,874.0421,1005.7084,131.6664
439.6135,879.1813,1008.7719,129.5906
444.4444,884.2396,1011.7871,127.5475
449.2754,889.2181,1014.7547,125.5366
454.1063,894.1182,1017.6755,123.5573
458.9372,898.9410,1020.5503,121.6093
463.7681,903.6877,1023.3797,119.6920
468.5990,908.3596,1026.1645,117.8049
473.4300,912.9579,1028.9054,115.9475
478.2609,917.4837,1031.6031,114.1194
483.0918,921.9381,1034.2582,112.3201
487.9227,926.3223,1036.8715,110.5492
492.7536,930.6374,1039.4436,108.8062
497.5845,934.8844,1041.9751,107.0907
502.4155,939.0645,1044.4667,105.4022
507.2464,943.1787,1046.9190,103.7403
512.0773,947.2280,1049.3327,102.1047
516.9082,951.2135,1051.7083,100.4948
521.7391,955.1361,1054.0464,98.9103
526.5700,958.9969,1056.3477,97.3508
531.4010,962.7968,1058.6127,95.8159
536.2319,966.5368,1060.8419,94.3051
541.0628,970.2178,1063.0361,92.8182
545.8937,973.8408,1065.1956,91.3548
550.7246,977.4067,1067.3211,89.9144
555.5556,980.9163,1069.4130,88.4967
560.3865,984.3707,1071.4720,87.1014
565.2174,987.7705,1073.4985,85.7280
570.0483,991.1167,1075.4931,84.3764
574.8792,994.4102,1077.4562,83.0460
579.7101,997.6518,1079.3884,81.7366
584.5411,1000.8422,1081.2901,80.4478
589.3720,1003.9824,1083.1618,79.1794
594.2029,1007.0730,1085.0040,77.9310
599.0338,1010.1149,1086.8171,76.7022
603.8647,1013.1088,1088.6017,75.4929
608.6957,1016.0556,1090.3581,74.3026
613.5266,1018.9558,1092.0869,73.1310
618.3575,1021.8104,1093.7884,71.9780
623.1884,1024.6199,1095.4630,70.8431
628.0193,1027.3851,1097.1112,69.7261
632.8502,1030.1068,1098.7335,68.6267
637.6812,1032.7855,1100.3302,67.5447
642.5121,1035.4220,1101.9017,66.4797
647.3430,1038.0169,1103.4484,65.4315
652.1739,1040.5709,1104.9708,64.3998
657.0048,1043.0847,1106.4691,63.3844
661.8357,1045.5588,1107.9438,62.3850
666.6667,1047.9938,1109.3953,61.4014
671.4976,1050.3905,1110.8238,60.4333
676.3285,1052.7495,1112.2299,59.4804
681.1594,1055.0712,1113.6138,58.5426
685.9903,1057.3563,1114.9758,57.6196
690.8213,1059.6054,1116.3164,56.7111
695.6522,1061.8190,1117.6359,55.8169
700.4831,1063.9977,1118.9345,54.9368
705.3140,1066.1421,1120.2127,54.0706
710.1449,1068.2526,1121.4707,53.2181
714.9758,1070.3299,1122.7089,52.3790
719.8068,1072.3744,1123.9275,51.5531
724.6377,1074.3867,1125.1270,50.7403
729.4686,1076.3672,1126.3075,49.9403
734.2995,1078.3166,1127.4694,49.1528
739.1304,1080.2352,1128.6130,48.3778
743.9614,1082.1235,1129.7386,47.6151
748.7923,1083.9821,1130.8464,46.8643
753.6232,1085.8114,1131.9368,46.1254
758.4541,1087.6118,1133.0099,45.3981
763.2850,1089.3838,1134.0662,44.6823
768.1159,1091.1279,1135.1057,43.9778
772.9469,1092.8445,1136.1289,43.2844
777.7778,1094.5340,1137.1360,42.6020
782.6087,1096.1969,1138.1272,41.9302
787.4396,1097.8336,1139.1027,41.2691
792.2705,1099.4445,1140.0629,40.6184
797.1014,1101.0299,1141.0079,39.9780
801.9324,1102.5904,1141.9381,39.3477
806.7633,1104.1263,1142.8535,38.7273
811.5942,1105.6379,1143.7546,38.1166
816.4251,1107.1258,1144.6414,37.5157
821.2560,1108.5901,1145.5143,36.9241
826.0870,1110.0314,1146.3733,36.3420
830.9179,1111.4499,1147.2189,35.7689
835.7488,1112.8461,1148.0511,35.2050
840.5797,1114.2203,1148.8702,34.6499
845.4106,1115.5728,1149.6763,34.1036
850.2415,1116.9039,1150.4698,33.5659
855.0725,1118.2141,1151.2507,33.0366
859.9034,1119.5037,1152.0194,32.5157
864.7343,1120.7728,1152.7759,32.0030
869.5652,1122.0220,1153.5205,31.4984
874.3961,1123.2515,1154.2533,31.0018
879.2271,1124.4616,1154.9746,30.5130
884.0580,1125.6526,1155.6845,30.0319
888.8889,1126.8249,1156.3833,29.5584
893.7198,1127.9786,1157.0710,29.0923
898.5507,1129.1142,1157.7478,28.6336
903.3816,1130.2319,1158.4140,28.1822
908.2126,1131.3319,1159.0697,27.7378
913.0435,1132.4146,1159.7151,27.3005
917.8744,1133.4802,1160.3503,26.8700
922.7053,1134.5291,1160.9754,26.4464
927.5362,1135.5614,1161.5907,26.0294
932.3671,1136.5774,1162.1963,25.6190
937.1981,1137.5774,1162.7924,25.2150
942.0290,1138.5616,1163.3790,24.8175
946.8599,1139.5303,1163.9564,24.4262
951.6908,1140.4837,1164.5247,24.0410
956.5217,1141.4221,1165.0841,23.6620
961.3527,1142.3457,1165.6346,23.2889
966.1836,1143.2548,1166.1765,22.9217
971.0145,1144.1495,1166.7098,22.5603
975.8454,1145.0301,1167.2346,22.2046
980.6763,1145.8968,1167.7513,21.8545
985.5072,1146.7498,1168.2597,21.5099
990.3382,1147.5894,1168.7602,21.1707
995.1691,1148.4158,1169.2527,20.8369
1000.0000,1149.2291,1169.7375,20.5084
