Czas (s),Temperatura w osi (C),Temperatura na powierzchni (C),Roznica dT (C)
0.0000,100.0000,100.0000,0.0000
0.4367,100.0000,135.9234,35.9234
0.8734,100.0000,154.2320,54.2320
1.3100,100.0000,167.6291,67.6291
1.7467,100.0000,178.6440,78.6440
2.1834,100.0000,188.1862,88.1862
2.6201,100.0000,196.7026,96.7026
3.0568,100.0000,204.4519,104.4519
3.4934,100.0000,211.5998,111.5998
3.9301,100.0000,218.2599,118.2599
4.3668,100.0000,224.5142,124.5142
4.8035,100.0000,230.4240,130.4240
5.2402,100.0000,236.0366,136.0366
5.6769,100.0000,241.3896,141.3896
6.1135,100.0000,246.5131,146.5131
6.5502,100.0000,251.4319,151.4319
6.9869,100.0000,256.1668,156.1667
7.4236,100.0001,260.7350,160.7349
7.8603,100.0001,265.1515,165.1514
8.2969,100.0002,269.4290,169.4289
8.7336,100.0003,273.5787,173.5784
9.1703,100.0005,277.6102,177.6097
9.6070,100.0007,281.5321,181.5314
10.0437,100.0011,285.3519,185.3508
10.4803,100.0016,289.0764,189.0748
10.9170,100.0023,292.7116,192.7093
11.3537,100.0032,296.2630,196.2598
11.7904,100.0045,299.7354,199.7310
12.2271,100.0061,303.1334,203.1273
12.6638,100.0083,306.4609,206.4526
13.1004,100.0110,309.7217,209.7107
13.5371,100.0143,312.9191,212.9048
13.9738,100.0185,316.0563,216.0377
14.4105,100.0237,319.1361,219.1124
14.8472,100.0300,322.1613,222.1313
15.2838,100.0376,325.1342,225.0966
15.7205,100.0466,328.0571,228.0105
16.1572,100.0573,330.9322,230.8749
16.5939,100.0698,333.7614,233.6916
17.0306,100.0844,336.5466,236.4622
17.4672,100.1014,339.2895,239.1882
17.9039,100.1209,341.9918,241.8710
18.3406,100.1431,344.6549,244.5118
18.7773,100.1684,347.2803,247.1119
19.2140,100.1970,349.8693,249.6723
19.6507,100.2292,352.4232,252.1940
20.0873,100.2652,354.9433,254.6780
20.5240,100.3054,357.4305,257.1251
20.9607,100.3499,359.8861,259.5362
21.3974,100.3991,362.3109,261.9118
21.8341,100.4532,364.7061,264.2529
22.2707,100.5125,367.0724,266.5599
22.7074,100.5773,369.4108,268.8335
23.1441,100.6479,371.7221,271.0742
23.5808,100.7245,374.0071,273.2826
24.0175,100.8074,376.2665,275.4591
24.4541,100.8969,378.5011,277.6042
24.8908,100.9932,380.7115,279.7184
25.3275,101.0965,382.8985,281.8019
25.7642,101.2072,385.0625,283.8553
26.2009,101.3253,387.2043,285.8789
26.6376,101.4513,389.3243,287.8730
27.0742,101.5852,391.4232,289.8380
27.5109,101.7274,393.5015,291.7741
27.9476,101.8779,395.5597,293.6818
28.3843,102.0371,397.5982,295.5611
28.8210,102.2050,399.6176,297.4126
29.2576,102.3820,401.6183,299.2364
29.6943,102.5680,403.6007,301.0327
30.1310,102.7634,405.5653,302.8019
30.5677,102.9682,407.5124,304.5442
31.0044,103.1826,409.4424,306.2598
31.4410,103.4068,411.3558,307.9490
31.8777,103.6408,413.2528,309.6120
32.3144,103.8848,415.1339,311.2491
32.7511,104.1389,416.9993,312.8604
33.1878,104.4031,418.8494,314.4463
33.6245,104.6777,420.6845,316.0068
34.0611,104.9626,422.5049,317.5423
34.4978,105.2579,424.3109,319.0530
34.9345,105.5637,426.1028,320.5391
35.3712,105.8801,427.8809,322.0007
35.8079,106.2072,429.6453,323.4382
36.2445,106.5448,431.3965,324.8517
36.6812,106.8932,433.1347,326.2414
37.1179,107.2523,434.8600,327.6076
37.5546,107.6222,436.5727,328.9505
37.9913,108.0028,438.2731,330.2703
38.4279,108.3942,439.9614,331.5672
38.8646,108.7964,441.6377,332.8413
39.3013,109.2094,443.3024,334.0930
39.7380,109.6331,444.9556,335.3225
40.1747,110.0676,446.5975,336.5298
40.6114,110.5129,448.2283,337.7154
41.0480,110.9689,449.8482,338.8793
41.4847,111.4356,451.4574,340.0218
41.9214,111.9129,453.0560,341.1430
42.3581,112.4009,454.6443,342.2433
42.7948,112.8995,456.2223,343.3228
43.2314,113.4087,457.7904,344.3817
43.6681,113.9283,459.3485,345.4203
44.1048,114.4584,460.8970,346.4386
44.5415,114.9988,462.4359,347.4371
44.9782,115.5496,463.9654,348.4157
45.4148,116.1107,465.4856,349.3749
45.8515,116.6820,466.9967,350.3147
46.2882,117.2634,468.4988,351.2354
46.7249,117.8549,469.9921,352.1372
47.1616,118.4564,471.4766,353.0203
47.5983,119.0678,472.9526,353.8848
48.0349,119.6890,474.4201,354.7311
48.4716,120.3200,475.8792,355.5592
48.9083,120.9607,477.3302,356.3695
49.3450,121.6110,478.7731,357.1620
49.7817,122.2708,480.2079,357.9371
50.2183,122.9401,481.6349,358.6949
50.6550,123.6186,483.0542,359.4356
51.0917,124.3065,484.4658,360.1593
51.5284,125.0035,485.8699,360.8664
51.9651,125.7096,487.2665,361.5569
52.4017,126.4246,488.6558,362.2312
52.8384,127.1485,490.0378,362.8893
53.2751,127.8813,491.4127,363.5315
53.7118,128.6227,492.7806,364.1579
54.1485,129.3727,494.1415,364.7688
54.5852,130.1313,495.4955,365.3643
55.0218,130.8982,496.8428,365.9446
55.4585,131.6735,498.1834,366.5100
55.8952,132.4569,499.5174,367.0605
56.3319,133.2485,500.8449,367.5964
56.7686,134.0481,502.1660,368.1178
57.2052,134.8557,503.4807,368.6250
57.6419,135.6710,504.7891,369.1181
58.0786,136.4941,506.0914,369.5973
58.5153,137.3248,507.3875,370.0627
58.9520,138.1630,508.6776,370.5146
59.3886,139.0087,509.9617,370.9530
59.8253,139.8617,511.2400,371.3783
60.2620,140.7219,512.5124,371.7905
60.6987,141.5893,513.7791,372.1898
61.1354,142.4637,515.0401,372.5764
61.5721,143.3450,516.2954,372.9504
62.0087,144.2332,517.5453,373.3120
62.4454,145.1282,518.7896,373.6614
62.8821,146.0298,520.0285,373.9988
63.3188,146.9379,521.2621,374.3242
63.7555,147.8526,522.4904,374.6378
64.1921,148.7736,523.7134,374.9399
64.6288,149.7008,524.9313,375.2305
65.0655,150.6343,526.1441,375.5098
65.5022,151.5738,527.3518,375.7779
65.9389,152.5194,528.5545,376.0351
66.3755,153.4708,529.7522,376.2814
66.8122,154.4281,530.9451,376.5170
67.2489,155.3911,532.1331,376.7420
67.6856,156.3597,533.3164,376.9567
68.1223,157.3339,534.4949,377.1610
68.5590,158.3135,535.6687,377.3552
68.9956,159.2985,536.8379,377.5394
69.4323,160.2888,538.0026,377.7138
69.8690,161.2843,539.1627,377.8784
70.3057,162.2849,540.3183,378.0334
70.7424,163.2905,541.4694,378.1789
71.1790,164.3011,542.6162,378.3152
71.6157,165.3165,543.7587,378.4422
72.0524,166.3367,544.8968,378.5601
72.4891,167.3616,546.0307,378.6691
72.9258,168.3911,547.1604,378.7693
73.3624,169.4252,548.2859,378.8608
73.7991,170.4637,549.4073,378.9436
74.2358,171.5066,550.5247,379.0181
74.6725,172.5538,551.6379,379.0842
75.1092,173.6052,552.7472,379.1420
75.5459,174.6607,553.8525,379.1918
75.9825,175.7204,554.9539,379.2336
76.4192,176.7840,556.0514,379.2675
76.8559,177.8515,557.1451,379.2936
77.2926,178.9229,558.2350,379.3121
77.7293,179.9981,559.3211,379.3230
78.1659,181.0770,560.4034,379.3265
78.6026,182.1595,561.4821,379.3226
79.0393,183.2455,562.5571,379.3116
79.4760,184.3351,563.6285,379.2934
79.9127,185.4281,564.6963,379.2682
80.3493,186.5244,565.7605,379.2361
80.7860,187.6241,566.8212,379.1971
81.2227,188.7269,567.8784,379.1515
81.6594,189.8330,568.9322,379.0992
82.0961,190.9421,569.9825,379.0404
82.5328,192.0542,571.0294,378.9752
82.9694,193.1693,572.0730,378.9036
83.4061,194.2874,573.1132,378.8259
83.8428,195.4082,574.1501,378.7419
84.2795,196.5319,575.1838,378.6519
84.7162,197.6582,576.2142,378.5560
85.1528,198.7873,577.2414,378.4541
85.5895,199.9189,578.2654,378.3465
86.0262,201.0531,579.2863,378.2332
86.4629,202.1898,580.3040,378.1142
86.8996,203.3289,581.3186,377.9897
87.3362,204.4704,582.3301,377.8598
87.7729,205.6142,583.3386,377.7245
88.2096,206.7602,584.3441,377.5839
88.6463,207.9085,585.3466,377.4381
89.0830,209.0590,586.3461,377.2871
89.5197,210.2115,587.3426,377.1311
89.9563,211.3661,588.3363,376.9702
90.3930,212.5227,589.3270,376.8043
90.8297,213.6813,590.3149,376.6336
91.2664,214.8417,591.2999,376.4582
91.7031,216.0041,592.2821,376.2780
92.1397,217.1682,593.2615,376.0933
92.5764,218.3341,594.2381,375.9041
93.0131,219.5016,595.2120,375.7103
93.4498,220.6709,596.1831,375.5122
93.8865,221.8418,597.1515,375.3098
94.3231,223.0142,598.1172,375.1030
94.7598,224.1882,599.0803,374.8921
95.1965,225.3636,600.0407,374.6771
95.6332,226.5405,600.9985,374.4580
96.0699,227.7188,601.9537,374.2349
96.5066,228.8984,602.9063,374.0079
96.9432,230.0794,603.8563,373.7770
97.3799,231.2616,604.8038,373.5422
97.8166,232.4450,605.7488,373.3038
98.2533,233.6297,606.6913,373.0616
98.6900,234.8154,607.6312,372.8158
99.1266,236.0023,608.5687,372.5664
99.5633,237.1903,609.5038,372.3135
100.0000,238.3793,610.4364,372.0572
100.4367,239.5692,611.3667,371.7974
100.8734,240.7602,612.2945,371.5343
101.3100,241.9520,613.2199,371.2679
101.7467,243.1448,614.1430,370.9983
102.1834,244.3384,615.0638,370.7254
102.6201,245.5328,615.9822,370.4495
103.0568,246.7279,616.8983,370.1704
103.4934,247.9239,617.8122,369.8883
103.9301,249.1205,618.7237,369.6032
104.3668,250.3178,619.6330,369.3152
104.8035,251.5158,620.5401,369.0243
105.2402,252.7143,621.4449,368.7306
105.6769,253.9135,622.3475,368.4341
106.1135,255.1132,623.2480,368.1348
106.5502,256.3134,624.1462,367.8328
106.9869,257.5141,625.0423,367.5282
107.4236,258.7152,625.9362,367.2210
107.8603,259.9168,626.8280,366.9112
108.2969,261.1188,627.7177,366.5989
108.7336,262.3211,628.6053,366.2842
109.1703,263.5238,629.4907,365.9670
109.6070,264.7268,630.3741,365.6474
110.0437,265.9300,631.2555,365.3254
110.4803,267.1336,632.1347,365.0012
110.9170,268.3373,633.0120,364.6747
111.3537,269.5413,633.8872,364.3459
111.7904,270.7454,634.7604,364.0150
112.2271,271.9497,635.6316,363.6819
112.6638,273.1541,636.5009,363.3467
113.1004,274.3587,637.3681,363.0095
113.5371,275.5633,638.2334,362.6702
113.9738,276.7679,639.0968,362.3289
114.4105,277.9726,639.9582,361.9856
114.8472,279.1773,640.8177,361.6404
115.2838,280.3819,641.6753,361.2933
115.7205,281.5865,642.5309,360.9444
116.1572,282.7911,643.3847,360.5936
116.5939,283.9955,644.2366,360.2411
117.0306,285.1999,645.0867,359.8868
117.4672,286.4041,645.9349,359.5308
117.9039,287.6082,646.7812,359.1731
118.3406,288.8121,647.6258,358.8137
118.7773,290.0158,648.4685,358.4527
119.2140,291.2193,649.3094,358.0901
119.6507,292.4225,650.1484,357.7259
120.0873,293.6255,650.9858,357.3602
120.5240,294.8283,651.8213,356.9930
120.9607,296.0307,652.6550,356.6243
121.3974,297.2328,653.4870,356.2542
121.8341,298.4346,654.3173,355.8827
122.2707,299.6361,655.1458,355.5097
122.7074,300.8371,655.9726,355.1354
123.1441,302.0378,656.7976,354.7598
123.5808,303.2381,657.6210,354.3829
124.0175,304.4380,658.4426,354.0046
124.4541,305.6374,659.2626,353.6252
124.8908,306.8364,660.0809,353.2445
125.3275,308.0349,660.8975,352.8626
125.7642,309.2330,661.7125,352.4795
126.2009,310.4305,662.5257,352.0953
126.6376,311.6275,663.3374,351.7099
127.0742,312.8240,664.1474,351.3234
127.5109,314.0199,664.9558,350.9359
127.9476,315.2153,665.7625,350.5473
128.3843,316.4101,666.5677,350.1576
128.8210,317.6043,667.3712,349.7670
129.2576,318.7978,668.1732,349.3754
129.6943,319.9908,668.9736,348.9828
130.1310,321.1831,669.7723,348.5892
130.5677,322.3748,670.5696,348.1947
131.0044,323.5658,671.3652,347.7994
131.4410,324.7562,672.1593,347.4031
131.8777,325.9458,672.9519,347.0060
132.3144,327.1348,673.7429,346.6081
132.7511,328.3230,674.5324,346.2093
133.1878,329.5106,675.3203,345.8097
133.6245,330.6973,676.1067,345.4094
134.0611,331.8834,676.8917,345.0083
134.4978,333.0686,677.6751,344.6065
134.9345,334.2531,678.4570,344.2039
135.3712,335.4368,679.2375,343.8006
135.8079,336.6197,680.0164,343.3967
136.2445,337.8018,680.7939,342.9921
136.6812,338.9831,681.5699,342.5868
137.1179,340.1636,682.3445,342.1809
137.5546,341.3432,683.1176,341.7744
137.9913,342.5219,683.8892,341.3673
138.4279,343.6998,684.6594,340.9596
138.8646,344.8769,685.4282,340.5513
139.3013,346.0530,686.1955,340.1425
139.7380,347.2283,686.9615,339.7332
140.1747,348.4026,687.7260,339.3233
140.6114,349.5761,688.4891,338.9130
141.0480,350.7486,689.2508,338.5021
141.4847,351.9202,690.0110,338.0908
141.9214,353.0909,690.7699,337.6791
142.3581,354.2606,691.5275,337.2669
142.7948,355.4294,692.2836,336.8542
143.2314,356.5972,693.0384,336.4412
143.6681,357.7640,693.7918,336.0278
144.1048,358.9298,694.5438,335.6139
144.5415,360.0947,695.2945,335.1998
144.9782,361.2586,696.0438,334.7852
145.4148,362.4214,696.7918,334.3703
145.8515,363.5833,697.5384,333.9551
146.2882,364.7441,698.2837,333.5396
146.7249,365.9039,699.0277,333.1237
147.1616,367.0627,699.7703,332.7076
147.5983,368.2205,700.5117,332.2912
148.0349,369.3771,701.2517,331.8745
148.4716,370.5328,701.9904,331.4576
148.9083,371.6874,702.7278,331.0404
149.3450,372.8409,703.4639,330.6230
149.7817,373.9933,704.1987,330.2054
150.2183,375.1446,704.9322,329.7876
150.6550,376.2949,705.6645,329.3696
151.0917,377.4441,706.3954,328.9514
151.5284,378.5922,707.1251,328.5330
151.9651,379.7391,707.8535,328.1144
152.4017,380.8850,708.5807,327.6957
152.8384,382.0297,709.3066,327.2769
153.2751,383.1733,710.0312,326.8579
153.7118,384.3158,710.7546,326.4388
154.1485,385.4572,711.4767,326.0196
154.5852,386.5974,712.1976,325.6003
155.0218,387.7365,712.9173,325.1808
155.4585,388.8744,713.6357,324.7613
155.8952,390.0112,714.3529,324.3418
156.3319,391.1468,715.0689,323.9221
156.7686,392.2812,715.7837,323.5024
157.2052,393.4145,716.4972,323.0827
157.6419,394.5466,717.2095,322.6629
158.0786,395.6775,717.9207,322.2431
158.5153,396.8073,718.6306,321.8233
158.9520,397.9359,719.3393,321.4035
159.3886,399.0632,720.0468,320.9836
159.8253,400.1894,720.7532,320.5638
160.2620,401.3144,721.4583,320.1439
160.6987,402.4381,722.1623,319.7241
161.1354,403.5607,722.8651,319.3044
161.5721,404.6821,723.5667,318.8846
162.0087,405.8022,724.2671,318.4649
162.4454,406.9211,724.9664,318.0453
162.8821,408.0388,725.6645,317.6257
163.3188,409.1553,726.3614,317.2061
163.7555,410.2705,727.0572,316.7867
164.1921,411.3846,727.7519,316.3673
164.6288,412.4973,728.4454,315.9480
165.0655,413.6089,729.1377,315.5288
165.5022,414.7192,729.8289,315.1097
165.9389,415.8282,730.5190,314.6908
166.3755,416.9360,731.2079,314.2719
166.8122,418.0426,731.8957,313.8531
167.2489,419.1479,732.5824,313.4345
167.6856,420.2519,733.2679,313.0160
168.1223,421.3547,733.9523,312.5977
168.5590,422.4562,734.6357,312.1795
168.9956,423.5565,735.3178,311.7614
169.4323,424.6554,735.9989,311.3435
169.8690,425.7531,736.6789,310.9257
170.3057,426.8496,737.3578,310.5082
170.7424,427.9448,738.0355,310.0908
171.1790,429.0386,738.7122,309.6736
171.6157,430.1313,739.3878,309.2565
172.0524,431.2226,740.0623,308.8397
172.4891,432.3126,740.7357,308.4230
172.9258,433.4014,741.4080,308.0066
173.3624,434.4888,742.0792,307.5903
173.7991,435.5750,742.7493,307.1743
174.2358,436.6599,743.4184,306.7585
174.6725,437.7435,744.0864,306.3429
175.1092,438.8258,744.7533,305.9275
175.5459,439.9068,745.4192,305.5124
175.9825,440.9865,746.0840,305.0975
176.4192,442.0649,746.7477,304.6828
176.8559,443.1420,747.4104,304.2684
177.2926,444.2178,748.0720,303.8542
177.7293,445.2923,748.7326,303.4403
178.1659,446.3655,749.3921,303.0266
178.6026,447.4373,750.0505,302.6132
179.0393,448.5079,750.7080,302.2001
179.4760,449.5771,751.3643,301.7872
179.9127,450.6451,752.0197,301.3746
180.3493,451.7117,752.6740,300.9623
180.7860,452.7770,753.3273,300.5502
181.2227,453.8410,753.9795,300.1385
181.6594,454.9037,754.6307,299.7270
182.0961,455.9650,755.2809,299.3158
182.5328,457.0251,755.9301,298.9050
182.9694,458.0838,756.5782,298.4944
183.4061,459.1412,757.2253,298.0841
183.8428,460.1973,757.8714,297.6741
184.2795,461.2520,758.5165,297.2645
184.7162,462.3055,759.1606,296.8551
185.1528,463.3576,759.8037,296.4461
185.5895,464.4083,760.4458,296.0374
186.0262,465.4578,761.0868,295.6290
186.4629,466.5059,761.7269,295.2210
186.8996,467.5527,762.3660,294.8132
187.3362,468.5982,763.0040,294.4058
187.7729,469.6423,763.6411,293.9988
188.2096,470.6852,764.2772,293.5920
188.6463,471.7266,764.9123,293.1857
189.0830,472.7668,765.5464,292.7796
189.5197,473.8056,766.1795,292.3739
189.9563,474.8431,766.8117,291.9686
190.3930,475.8793,767.4429,291.5636
190.8297,476.9141,768.0731,291.1590
191.2664,477.9476,768.7023,290.7547
191.7031,478.9798,769.3305,290.3508
192.1397,480.0106,769.9578,289.9472
192.5764,481.0401,770.5841,289.5440
193.0131,482.0683,771.2094,289.1412
193.4498,483.0951,771.8338,288.7387
193.8865,484.1206,772.4572,288.3366
194.3231,485.1448,773.0797,287.9349
194.7598,486.1676,773.7012,287.5336
195.1965,487.1891,774.3217,287.1327
195.6332,488.2093,774.9413,286.7321
196.0699,489.2281,775.5600,286.3319
196.5066,490.2456,776.1777,285.9321
196.9432,491.2618,776.7944,285.5327
197.3799,492.2766,777.4102,285.1336
197.8166,493.2901,778.0251,284.7350
198.2533,494.3023,778.6390,284.3367
198.6900,495.3131,779.2520,283.9389
199.1266,496.3226,779.8640,283.5414
199.5633,497.3308,780.4752,283.1444
200.0000,498.3376,781.0853,282.7477
200.4367,499.3431,781.6946,282.3515
200.8734,500.3473,782.3029,281.9556
201.3100,501.3501,782.9103,281.5602
201.7467,502.3516,783.5168,281.1651
202.1834,503.3518,784.1223,280.7705
202.6201,504.3507,784.7270,280.3763
203.0568,505.3482,785.3307,279.9825
203.4934,506.3444,785.9335,279.5891
203.9301,507.3392,786.5354,279.1961
204.3668,508.3328,787.1363,278.8036
204.8035,509.3250,787.7364,278.4114
205.2402,510.3158,788.3355,278.0197
205.6769,511.3054,788.9338,277.6284
206.1135,512.2936,789.5311,277.2375
206.5502,513.2805,790.1275,276.8471
206.9869,514.2661,790.7231,276.4570
207.4236,515.2503,791.3177,276.0674
207.8603,516.2332,791.9115,275.6782
208.2969,517.2148,792.5043,275.2895
208.7336,518.1951,793.0962,274.9012
209.1703,519.1740,793.6873,274.5133
209.6070,520.1516,794.2775,274.1258
210.0437,521.1279,794.8667,273.7388
210.4803,522.1029,795.4551,273.3522
210.9170,523.0766,796.0426,272.9660
211.3537,524.0489,796.6292,272.5803
211.7904,525.0200,797.2150,272.1950
212.2271,525.9897,797.7998,271.8102
212.6638,526.9580,798.3838,271.4258
213.1004,527.9251,798.9669,271.0418
213.5371,528.8909,799.5491,270.6583
213.9738,529.8553,800.1305,270.2752
214.4105,530.8184,800.7110,269.8925
214.8472,531.7802,801.2906,269.5103
215.2838,532.7407,801.8693,269.1286
215.7205,533.6999,802.4472,268.7473
216.1572,534.6578,803.0242,268.3664
216.5939,535.6144,803.6004,267.9860
217.0306,536.5696,804.1756,267.6060
217.4672,537.5236,804.7501,267.2265
217.9039,538.4762,805.3236,266.8474
218.3406,539.4275,805.8963,266.4688
218.7773,540.3776,806.4682,266.0906
219.2140,541.3263,807.0392,265.7129
219.6507,542.2737,807.6094,265.3356
220.0873,543.2198,808.1787,264.9588
220.5240,544.1646,808.7471,264.5825
220.9607,545.1082,809.3147,264.2066
221.3974,546.0504,809.8815,263.8311
221.8341,546.9913,810.4474,263.4561
222.2707,547.9309,811.0125,263.0815
222.7074,548.8692,811.5767,262.7075
223.1441,549.8063,812.1401,262.3338
223.5808,550.7420,812.7026,261.9606
224.0175,551.6764,813.2643,261.5879
224.4541,552.6096,813.8252,261.2156
224.8908,553.5414,814.3853,260.8438
225.3275,554.4720,814.9445,260.4725
225.7642,555.4013,815.5029,260.1016
226.2009,556.3293,816.0604,259.7312
226.6376,557.2560,816.6172,259.3612
227.0742,558.1814,817.1731,258.9917
227.5109,559.1055,817.7282,258.6226
227.9476,560.0284,818.2824,258.2540
228.3843,560.9499,818.8358,257.8859
228.8210,561.8702,819.3885,257.5182
229.2576,562.7892,819.9403,257.1510
229.6943,563.7070,820.4912,256.7843
230.1310,564.6234,821.0414,256.4180
230.5677,565.5386,821.5907,256.0522
231.0044,566.4525,822.1393,255.6868
231.4410,567.3651,822.6870,255.3219
231.8777,568.2764,823.2339,254.9575
232.3144,569.1865,823.7800,254.5935
232.7511,570.0953,824.3253,254.2300
233.1878,571.0029,824.8698,253.8670
233.6245,571.9091,825.4135,253.5044
234.0611,572.8141,825.9564,253.1423
234.4978,573.7179,826.4985,252.7806
234.9345,574.6203,827.0398,252.4194
235.3712,575.5216,827.5802,252.0587
235.8079,576.4215,828.1199,251.6984
236.2445,577.3202,828.6588,251.3386
236.6812,578.2176,829.1969,250.9793
237.1179,579.1138,829.7342,250.6204
237.5546,580.0087,830.2707,250.2620
